wavelength (nm),Xe arc lamp (W*m-2*nm-1)
300.36966,7.93E-04
300.58005,8.16E-04
300.79044,8.37E-04
301.00082,8.58E-04
301.21124,8.76E-04
301.42169,8.93E-04
301.63214,9.08E-04
301.84262,9.21E-04
302.05313,9.33E-04
302.26361,9.44E-04
302.47415,9.53E-04
302.68469,9.60E-04
302.89523,9.66E-04
303.1058,9.72E-04
303.31641,9.77E-04
303.52701,9.81E-04
303.73764,9.83E-04
303.94827,9.86E-04
304.15894,9.89E-04
304.3696,9.92E-04
304.58029,9.97E-04
304.79102,1.00E-03
305.00174,1.01E-03
305.21246,1.02E-03
305.42322,1.03E-03
305.634,1.04E-03
305.84479,1.06E-03
306.0556,1.08E-03
306.26642,1.10E-03
306.47726,1.12E-03
306.68811,1.14E-03
306.89899,1.17E-03
307.10986,1.20E-03
307.32077,1.24E-03
307.53171,1.27E-03
307.74265,1.31E-03
307.95361,1.35E-03
308.16458,1.40E-03
308.37555,1.44E-03
308.58658,1.50E-03
308.79761,1.55E-03
309.00864,1.61E-03
309.2197,1.67E-03
309.43076,1.75E-03
309.64185,1.84E-03
309.85297,1.94E-03
310.06409,2.06E-03
310.27521,2.19E-03
310.48636,2.33E-03
310.69754,2.46E-03
310.90872,2.59E-03
311.11993,2.71E-03
311.33115,2.82E-03
311.54239,2.92E-03
311.75366,3.01E-03
311.96494,3.11E-03
312.17621,3.20E-03
312.38751,3.29E-03
312.59885,3.39E-03
312.81018,3.48E-03
313.02151,3.57E-03
313.23288,3.65E-03
313.44427,3.73E-03
313.65567,3.80E-03
313.8671,3.86E-03
314.07855,3.91E-03
314.29001,3.93E-03
314.50146,3.94E-03
314.71295,3.94E-03
314.92444,3.94E-03
315.13596,3.94E-03
315.3475,3.95E-03
315.55905,3.97E-03
315.77063,0.004
315.98221,0.00404
316.19382,0.00404
316.40543,0.00408
316.61707,0.00408
316.8287,0.00408
317.04037,0.00412
317.25208,0.00412
317.46378,0.00412
317.67548,0.00408
317.88721,4.08E-03
318.09897,4.08E-03
318.31073,4.08E-03
318.52252,4.04E-03
318.73431,4.04E-03
318.94611,4.00E-03
319.15796,3.99E-03
319.36981,3.98E-03
319.58166,3.96E-03
319.79355,3.95E-03
320.00543,3.93E-03
320.21735,3.92E-03
320.42929,3.91E-03
320.64124,3.90E-03
320.85318,3.90E-03
321.06519,3.90E-03
321.27716,3.91E-03
321.48917,3.93E-03
321.7012,3.95E-03
321.91324,3.98E-03
322.12531,4.04E-03
322.33737,4.08E-03
322.54947,4.16E-03
322.7616,4.24E-03
322.97372,4.32E-03
323.18585,4.44E-03
323.39801,4.56E-03
323.6102,4.72E-03
323.82239,4.84E-03
324.03458,5.00E-03
324.24683,5.20E-03
324.45905,5.36E-03
324.67133,5.60E-03
324.88358,5.80E-03
325.09589,6.00E-03
325.30817,0.00624
325.52051,0.00644
325.73285,0.00664
325.94519,0.00688
326.15756,0.00712
326.36996,0.00736
326.58237,0.0076
326.79477,0.00784
327.0072,0.00808
327.21967,0.00832
327.43213,0.00856
327.64462,0.00884
327.85712,0.00904
328.06964,0.00928
328.28217,0.00952
328.49472,0.00972
328.70728,0.00992
328.91986,0.01012
329.13248,0.01032
329.34509,0.01052
329.55771,0.01068
329.77036,0.01084
329.98303,0.01104
330.19571,0.0112
330.40839,0.01132
330.62109,0.01148
330.83383,0.0116
331.04657,0.01172
331.25934,0.0118
331.47211,0.01192
331.68491,0.012
331.89774,0.01208
332.11053,0.01216
332.32339,0.0122
332.53625,0.01228
332.74912,0.01236
332.96201,0.01244
333.17493,0.01252
333.38785,0.01256
333.60077,0.01264
333.81372,0.01272
334.0267,0.0128
334.23969,0.01292
334.4527,0.013
334.66571,0.01312
334.87875,0.01324
335.0918,0.0134
335.30487,0.0136
335.51794,0.01376
335.73105,0.014
335.94418,0.0142
336.15729,0.01448
336.37045,0.01476
336.58362,0.01504
336.79678,0.01536
337.00998,0.01572
337.22321,0.01612
337.43643,0.01656
337.64969,0.017
337.86295,0.01748
338.07623,0.018
338.28952,0.0186
338.50281,0.0192
338.71616,0.0198
338.92947,0.02044
339.14285,0.02112
339.35623,0.02184
339.56961,0.0226
339.78302,0.02336
339.99643,0.02416
340.20987,0.025
340.42334,0.02588
340.63681,0.02676
340.85028,0.02764
341.06378,0.0286
341.27731,0.02952
341.49084,0.03048
341.70438,0.03148
341.91797,0.03248
342.13153,0.03348
342.34512,0.03444
342.55875,0.0354
342.77237,0.03636
342.98602,0.03732
343.19968,0.03824
343.41336,0.03912
343.62708,0.04
343.84076,0.04084
344.0545,0.04164
344.26825,0.0424
344.48199,0.04312
344.69577,0.0438
344.90958,0.04444
345.12338,0.04508
345.33719,0.04556
345.55103,0.04604
345.76489,0.04648
345.97876,0.04684
346.19263,0.04712
346.40656,0.04736
346.62045,0.04752
346.83438,0.04764
347.04834,0.04768
347.2623,0.04772
347.47629,0.04768
347.69028,0.04768
347.9043,0.0476
348.11832,0.04744
348.33237,0.04724
348.54645,0.047
348.7605,0.04668
348.97461,0.0464
349.18872,0.04612
349.40283,0.04576
349.61697,0.04544
349.83115,0.04512
350.04532,0.0448
350.25949,0.04444
350.47369,0.04412
350.68793,0.0438
350.90216,0.04348
351.11639,0.0432
351.33069,0.04296
351.54495,0.04276
351.75925,0.04256
351.97357,0.04236
352.1879,0.0422
352.40225,0.04208
352.61661,0.04204
352.83099,0.04204
353.04538,0.04208
353.2598,0.04216
353.47421,0.04228
353.68866,0.04244
353.90311,0.0426
354.11758,0.04284
354.33209,0.04308
354.5466,0.0434
354.76111,0.04376
354.97565,0.04416
355.19019,0.04464
355.40475,0.04512
355.61935,0.04568
355.83395,0.04624
356.04855,0.04684
356.26318,0.04752
356.47784,0.0482
356.6925,0.04892
356.9072,0.04972
357.12189,0.0506
357.33658,0.05148
357.55133,0.05236
357.76605,0.0534
357.9808,0.0544
358.19559,0.05552
358.41037,0.05664
358.62518,0.05772
358.84,0.0588
359.05484,0.05988
359.26968,0.061
359.48456,0.06208
359.69943,0.06324
359.91434,0.0644
360.12924,0.0656
360.34418,0.0668
360.55914,0.06808
360.77408,0.0694
360.98907,0.0708
361.20407,0.07216
361.41907,0.07364
361.63409,0.07544
361.84912,0.07772
362.06418,0.08016
362.27927,0.08252
362.49435,0.08464
362.70944,0.08656
362.92456,0.08832
363.13971,0.08984
363.35486,0.09116
363.57001,0.09232
363.78522,0.09332
364.0004,0.0942
364.21561,0.09492
364.43085,0.09552
364.64609,0.09604
364.86133,0.0964
365.07663,0.09652
365.2919,0.0966
365.5072,0.09656
365.72253,0.09632
365.93787,0.09568
366.15323,0.09444
366.36859,0.09288
366.58398,0.09132
366.79938,0.08984
367.0148,0.0884
367.23022,0.08716
367.44568,0.08612
367.66113,0.08524
367.87662,0.08448
368.0921,0.08376
368.30762,0.08316
368.52313,0.08264
368.73868,0.08208
368.95422,0.08148
369.1698,0.08104
369.38541,0.08068
369.60098,0.08036
369.81662,0.07996
370.03226,0.07964
370.24789,0.07928
370.46356,0.07896
370.67923,0.07872
370.89493,0.07856
371.11066,0.07848
371.32639,0.07848
371.54211,0.07852
371.75787,0.0786
371.97363,0.07868
372.18942,0.07884
372.40524,0.07904
372.62106,0.07936
372.83688,0.07972
373.05273,0.08004
373.26862,0.08044
373.4845,0.0808
373.70038,0.08116
373.91629,0.08164
374.13223,0.08224
374.34818,0.08292
374.56412,0.08368
374.78009,0.08456
374.99609,0.08552
375.2121,0.08652
375.42813,0.08752
375.64416,0.08876
375.8602,0.09024
376.07626,0.0922
376.29236,0.09456
376.50845,0.09708
376.72458,0.09992
376.9407,0.10264
377.15683,0.10584
377.37299,0.10904
377.58917,0.1128
377.80536,0.11664
378.02158,0.1208
378.23779,0.12516
378.45404,0.13016
378.67029,0.13504
378.88654,0.14016
379.10281,0.14516
379.31912,0.15064
379.53543,0.156
379.75177,0.162
379.96811,0.1678
380.18448,0.174
380.40085,0.1794
380.61725,0.18472
380.83365,0.1898
381.05008,0.1954
381.26651,0.20056
381.48294,0.20592
381.69943,0.21112
381.91589,0.21664
382.13239,0.22168
382.34891,0.22696
382.56543,0.2316
382.78198,0.23612
382.99854,0.24052
383.21512,0.24508
383.4317,0.24936
383.64832,0.25336
383.86493,0.25696
384.08157,0.26032
384.29822,0.2632
384.51489,0.266
384.73157,0.26916
384.94827,0.27228
385.16498,0.2752
385.38171,0.27752
385.59845,0.27988
385.81522,0.28184
386.03198,0.28364
386.24878,0.28508
386.46558,0.28632
386.6824,0.28724
386.89923,0.28812
387.11606,0.28928
387.33295,0.28988
387.5498,0.29008
387.76672,0.29044
387.98361,0.29116
388.20056,0.29164
388.41748,0.29188
388.63446,0.2918
388.85141,0.2914
389.06839,0.29048
389.2854,0.28964
389.50241,0.28872
389.71945,0.28876
389.93649,0.28848
390.15356,0.28772
390.37064,0.28696
390.58774,0.2858
390.80484,0.28476
391.02197,0.28432
391.23911,0.28432
391.45627,0.28348
391.67343,0.2832
391.89063,0.28304
392.10782,0.28224
392.32501,0.28176
392.54227,0.28144
392.75949,0.28168
392.97675,0.28316
393.19403,0.28452
393.41132,0.28548
393.62863,0.28648
393.84595,0.28724
394.06329,0.28716
394.28064,0.2874
394.49802,0.28872
394.71539,0.29028
394.93277,0.29212
395.15018,0.29384
395.36761,0.29472
395.58505,0.2946
395.80252,0.29496
396.01999,0.29516
396.23749,0.29536
396.45499,0.29608
396.67249,0.29608
396.89001,0.29652
397.10757,0.29544
397.32513,0.29476
397.54272,0.2938
397.76031,0.29368
397.97791,0.29348
398.19553,0.2944
398.41318,0.29412
398.63083,0.29472
398.84848,0.2946
399.06616,0.29532
399.28387,0.2956
399.50159,0.29724
399.7193,0.29888
399.93704,0.3016
400.15482,0.30344
400.37259,0.30604
400.59036,0.30836
400.80817,0.31188
401.026,0.31548
401.24384,0.31928
401.46167,0.32372
401.67953,0.32788
401.89743,0.33192
402.1153,0.33624
402.33322,0.33988
402.55115,0.34316
402.76907,0.34708
402.98703,0.351
403.20499,0.35472
403.42297,0.35844
403.64099,0.36264
403.85898,0.36676
404.07703,0.37052
404.29507,0.37468
404.51312,0.37912
404.7312,0.38372
404.94928,0.38844
405.16739,0.39296
405.3855,0.39768
405.60364,0.402
405.82178,0.40612
406.03995,0.41012
406.25812,0.41408
406.47632,0.41828
406.69452,0.42244
406.91275,0.42652
407.13098,0.43116
407.34924,0.4352
407.5675,0.43856
407.78577,0.44164
408.00409,0.44524
408.22238,0.44852
408.4407,0.4532
408.65906,0.45768
408.87741,0.46156
409.09579,0.46464
409.31418,0.46656
409.53256,0.4674
409.75098,0.46784
409.96942,0.46908
410.18787,0.4706
410.40631,0.47252
410.62479,0.47472
410.84329,0.47564
411.0618,0.4768
411.2803,0.47824
411.49884,0.47892
411.71741,0.47924
411.93594,0.47924
412.15454,0.4794
412.37314,0.47804
412.59174,0.47652
412.81036,0.47396
413.02899,0.47124
413.24765,0.46876
413.46631,0.46668
413.685,0.46556
413.90369,0.46496
414.12241,0.46364
414.34113,0.46168
414.55988,0.45896
414.77863,0.45632
414.99741,0.45408
415.21619,0.4536
415.435,0.45456
415.65381,0.45612
415.87265,0.45744
416.09149,0.45896
416.31036,0.46028
416.52924,0.46076
416.74811,0.46172
416.96701,0.46248
417.18594,0.46272
417.40488,0.46296
417.62381,0.4638
417.84277,0.46456
418.06177,0.46384
418.28076,0.46316
418.49976,0.46264
418.71878,0.46208
418.93781,0.46208
419.15686,0.46216
419.37595,0.46172
419.59503,0.46052
419.81412,0.45724
420.03323,0.45332
420.25235,0.45
420.4715,0.44672
420.69064,0.44384
420.90982,0.44188
421.129,0.44036
421.34821,0.43912
421.56741,0.43796
421.78662,0.43704
422.00589,0.43556
422.22513,0.43444
422.4444,0.43444
422.6637,0.43448
422.883,0.43452
423.10233,0.43508
423.32166,0.43572
423.54099,0.4364
423.76035,0.43724
423.97971,0.43724
424.1991,0.438
424.41852,0.43848
424.63794,0.43912
424.85736,0.44076
425.07681,0.44292
425.29626,0.44496
425.51575,0.44648
425.73523,0.44728
425.95474,0.44876
426.17426,0.44976
426.3938,0.45072
426.61334,0.45156
426.83292,0.45312
427.05249,0.45496
427.27209,0.45752
427.4917,0.4596
427.71133,0.46188
427.93097,0.46324
428.1506,0.465
428.37027,0.46644
428.58997,0.46756
428.80966,0.4688
429.02936,0.47072
429.24908,0.47268
429.46881,0.47512
429.68857,0.4768
429.90836,0.47852
430.12811,0.48128
430.34793,0.48312
430.56775,0.48596
430.78757,0.48924
431.00742,0.49264
431.22726,0.49568
431.44711,0.49828
431.66702,0.50076
431.8869,0.50488
432.10681,0.5104
432.32675,0.51536
432.54669,0.51912
432.76666,0.52396
432.98663,0.52944
433.2066,0.53476
433.42661,0.53912
433.64664,0.54288
433.86664,0.54632
434.0867,0.55112
434.30676,0.55644
434.52682,0.56072
434.74692,0.56536
434.96701,0.57012
435.18713,0.57484
435.40726,0.57976
435.62741,0.58428
435.84756,0.58764
436.06775,0.58944
436.28793,0.58968
436.50812,0.58844
436.72833,0.5876
436.94858,0.58804
437.16882,0.58916
437.38907,0.58996
437.60934,0.59112
437.82965,0.59156
438.04996,0.59144
438.27026,0.59124
438.4906,0.58956
438.71094,0.5878
438.9313,0.58776
439.15167,0.58796
439.37207,0.5866
439.59247,0.58484
439.8129,0.58316
440.03333,0.58128
440.25375,0.57996
440.47424,0.57976
440.6947,0.5794
440.91519,0.57852
441.13571,0.5788
441.35623,0.58036
441.57675,0.58132
441.7973,0.58092
442.01785,0.57988
442.23843,0.57928
442.45901,0.57864
442.67963,0.57696
442.90024,0.5752
443.12088,0.57284
443.34152,0.56928
443.56219,0.56736
443.78287,0.56752
444.00357,0.56704
444.22427,0.56488
444.44498,0.56232
444.66571,0.55988
444.88647,0.55776
445.10724,0.5554
445.328,0.55292
445.5488,0.54984
445.76959,0.54676
445.99042,0.54612
446.21124,0.55128
446.4321,0.56216
446.65295,0.5724
446.87384,0.58088
447.09473,0.58812
447.31564,0.59304
447.53656,0.5962
447.75748,0.59836
447.97842,0.59796
448.1994,0.59672
448.42038,0.59804
448.64136,0.60296
448.86237,0.61096
449.08337,0.61784
449.30441,0.62328
449.52545,0.62744
449.74652,0.63088
449.96759,0.63316
450.18869,0.6334
450.40979,0.63132
450.63092,0.62496
450.85205,0.61268
451.07318,0.60116
451.29434,0.59252
451.51553,0.586
451.73669,0.58304
451.95792,0.58188
452.17914,0.58144
452.40036,0.58212
452.62161,0.58288
452.84287,0.58248
453.06415,0.57952
453.28543,0.57572
453.50671,0.57404
453.72806,0.57448
453.94937,0.57728
454.17072,0.58116
454.39209,0.58592
454.61346,0.59132
454.83484,0.59588
455.05624,0.59964
455.27765,0.6036
455.49908,0.60764
455.72052,0.61024
455.94199,0.61352
456.16345,0.61592
456.38495,0.6176
456.60645,0.61984
456.82794,0.62264
457.04947,0.62548
457.27103,0.62856
457.49258,0.632
457.71414,0.63432
457.93573,0.63764
458.15732,0.64212
458.37894,0.64808
458.60056,0.6562
458.8222,0.66592
459.04385,0.67632
459.26553,0.6872
459.48721,0.69712
459.70892,0.70576
459.93063,0.7146
460.15234,0.7228
460.37408,0.72952
460.59583,0.73564
460.8176,0.74232
461.03937,0.74812
461.26117,0.75292
461.48297,0.7564
461.7048,0.75908
461.92664,0.76088
462.1485,0.76388
462.37036,0.76704
462.59222,0.77012
462.81412,0.7722
463.03604,0.77552
463.25797,0.78416
463.47989,0.79888
463.70184,0.81752
463.9238,0.8378
464.14578,0.8588
464.36777,0.87752
464.58978,0.89248
464.8118,0.906
465.03381,0.91896
465.25586,0.93116
465.47794,0.94264
465.70001,0.95408
465.92209,0.96408
466.1442,0.97352
466.3663,0.98312
466.58844,0.9912
466.81058,0.9968
467.03275,0.99948
467.25491,0.9998
467.47711,0.99596
467.69931,0.98392
467.92151,0.96396
468.14374,0.94024
468.36597,0.91676
468.58823,0.89376
468.81052,0.87388
469.03278,0.86004
469.2551,0.85432
469.47739,0.85756
469.69971,0.86636
469.92206,0.87236
470.14441,0.87348
470.36676,0.87312
470.58914,0.86936
470.81155,0.86344
471.03397,0.85664
471.25638,0.84928
471.47882,0.84336
471.70126,0.83784
471.92374,0.83296
472.14621,0.82952
472.36868,0.82616
472.59119,0.82324
472.81372,0.82016
473.03625,0.81612
473.25879,0.81108
473.48135,0.80424
473.70392,0.79128
473.92651,0.76948
474.14911,0.74444
474.37173,0.72396
474.59436,0.70896
474.81699,0.69712
475.03964,0.68852
475.26233,0.68328
475.48502,0.68072
475.7077,0.6778
475.93042,0.6746
476.15314,0.67284
476.37588,0.67216
476.59863,0.67344
476.82141,0.67756
477.04419,0.68392
477.26697,0.69132
477.48978,0.7006
477.71262,0.709
477.93542,0.71796
478.15829,0.72604
478.38113,0.73232
478.60403,0.73528
478.8269,0.73736
479.0498,0.74116
479.27274,0.74808
479.49567,0.75672
479.7186,0.76364
479.94156,0.76848
480.16455,0.77396
480.38754,0.77752
480.61053,0.77948
480.83353,0.7814
481.05658,0.78036
481.2796,0.7764
481.50266,0.76928
481.72574,0.7604
481.94882,0.74992
482.17191,0.73956
482.39502,0.7298
482.61813,0.72116
482.84128,0.7146
483.06442,0.71004
483.2876,0.7062
483.51077,0.70032
483.73395,0.69124
483.95715,0.6818
484.18039,0.67304
484.40363,0.6648
484.62686,0.65812
484.85013,0.6528
485.07339,0.64772
485.29669,0.64152
485.51999,0.63636
485.74329,0.63284
485.96661,0.62972
486.18997,0.62688
486.4133,0.62548
486.63669,0.62528
486.86008,0.62512
487.08347,0.6246
487.30685,0.6254
487.5303,0.6268
487.75372,0.63024
487.97717,0.63596
488.20065,0.64568
488.4241,0.65572
488.64761,0.66492
488.87109,0.67512
489.09463,0.68344
489.31815,0.68992
489.54169,0.69516
489.76526,0.7014
489.98883,0.70656
490.2124,0.70904
490.436,0.70944
490.65964,0.71124
490.88324,0.71476
491.1069,0.71624
491.33054,0.71708
491.5542,0.71828
491.77789,0.7186
492.00159,0.71748
492.22528,0.71432
492.44901,0.70896
492.67273,0.7008
492.89648,0.69172
493.12024,0.68308
493.34402,0.6744
493.56781,0.66768
493.79163,0.66212
494.01544,0.65864
494.23926,0.65468
494.4631,0.65052
494.68695,0.648
494.91083,0.6486
495.1347,0.64772
495.35861,0.64524
495.58252,0.64456
495.80643,0.64276
496.03037,0.64148
496.2543,0.64096
496.47827,0.64128
496.70224,0.64168
496.92624,0.64256
497.15024,0.64312
497.37427,0.64444
497.5983,0.64504
497.82233,0.64392
498.04639,0.64164
498.27048,0.6412
498.49454,0.64176
498.71863,0.64212
498.94275,0.64396
499.16687,0.64652
499.39102,0.64792
499.61517,0.64852
499.83932,0.65056
500.06351,0.65056
500.28769,0.6524
500.5119,0.6554
500.73611,0.65868
500.96036,0.66152
501.1846,0.6634
501.40884,0.66412
501.63312,0.66508
501.85739,0.66544
502.0817,0.66668
502.306,0.6686
502.53033,0.6712
502.75467,0.67276
502.97903,0.674
503.2034,0.67516
503.42776,0.67608
503.65216,0.67644
503.87656,0.6764
504.10098,0.67632
504.32541,0.67508
504.54984,0.67552
504.77429,0.67584
504.99878,0.67516
505.22327,0.67528
505.44775,0.67528
505.67227,0.67612
505.89679,0.677
506.12134,0.67772
506.34589,0.679
506.57043,0.68052
506.79501,0.68192
507.01959,0.682
507.2442,0.6822
507.46881,0.68284
507.69345,0.683
507.91809,0.68312
508.14276,0.68432
508.36743,0.68492
508.5921,0.68668
508.8168,0.68952
509.0415,0.69156
509.26624,0.69236
509.49097,0.6928
509.71573,0.6912
509.94049,0.69048
510.16525,0.6896
510.39005,0.6902
510.61484,0.6912
510.83966,0.69084
511.06448,0.69004
511.28934,0.68904
511.51419,0.68828
511.73904,0.68756
511.96393,0.68736
512.18884,0.68844
512.41376,0.68936
512.63867,0.68696
512.86359,0.68564
513.0885,0.68448
513.31348,0.68152
513.53845,0.67952
513.76343,0.67912
513.98846,0.67828
514.21344,0.67884
514.43848,0.67888
514.66351,0.67928
514.88855,0.67984
515.11365,0.6788
515.33875,0.67684
515.56378,0.674
515.78894,0.67212
516.01404,0.6728
516.23914,0.6738
516.46429,0.67268
516.68945,0.66976
516.91461,0.66708
517.13983,0.66664
517.36499,0.6668
517.59021,0.6654
517.81543,0.66328
518.04065,0.66196
518.26593,0.6604
518.49121,0.65888
518.71649,0.6568
518.94177,0.65508
519.16705,0.65364
519.39233,0.6514
519.61768,0.64992
519.84302,0.6508
520.06836,0.65344
520.29376,0.65548
520.5191,0.65436
520.74451,0.65212
520.96991,0.65088
521.19531,0.65028
521.42078,0.65004
521.64624,0.6508
521.8717,0.65136
522.09717,0.65192
522.32263,0.653
522.5481,0.65404
522.77362,0.65432
522.99915,0.65472
523.22467,0.65292
523.45026,0.65136
523.67578,0.64884
523.90137,0.64748
524.12695,0.64712
524.35254,0.64668
524.57819,0.64588
524.80377,0.64592
525.02942,0.64676
525.25507,0.64812
525.48077,0.64712
525.70642,0.6458
525.93213,0.64416
526.15784,0.6406
526.38354,0.639
526.60925,0.6392
526.83502,0.63808
527.06079,0.63816
527.28656,0.63928
527.51233,0.63944
527.7381,0.6402
527.96393,0.64016
528.18976,0.64224
528.41559,0.64344
528.64142,0.64448
528.86731,0.6454
529.09314,0.64528
529.31903,0.64392
529.54492,0.64372
529.77087,0.64288
529.99677,0.64404
530.22272,0.64664
530.44867,0.649
530.67462,0.652
530.90057,0.65044
531.12659,0.64896
531.3526,0.65008
531.57861,0.64912
531.80463,0.648
532.03064,0.64724
532.25671,0.64892
532.48279,0.6526
532.70886,0.65436
532.93494,0.65432
533.16107,0.65244
533.38715,0.6498
533.61328,0.64912
533.83942,0.6488
534.06561,0.64724
534.29175,0.64652
534.51794,0.6472
534.74414,0.64788
534.97034,0.64828
535.19653,0.64904
535.42279,0.65196
535.64905,0.65392
535.87531,0.65588
536.10156,0.65616
536.32782,0.65684
536.55414,0.65832
536.78046,0.6594
537.00677,0.65812
537.23309,0.65788
537.45947,0.6586
537.68579,0.66064
537.91217,0.6644
538.13855,0.66632
538.36493,0.66724
538.59137,0.66884
538.81781,0.66996
539.04425,0.67096
539.27069,0.67212
539.49713,0.67308
539.72363,0.67372
539.95007,0.67428
540.17657,0.67512
540.40314,0.67476
540.62964,0.67596
540.8562,0.67612
541.0827,0.67644
541.30927,0.67748
541.53589,0.68
541.76245,0.68156
541.98907,0.6838
542.21564,0.68744
542.44226,0.68912
542.66895,0.69072
542.89557,0.6928
543.12225,0.69432
543.34894,0.695
543.57562,0.69428
543.80231,0.6934
544.02905,0.69368
544.25574,0.69572
544.48248,0.69816
544.70923,0.7004
544.93604,0.70348
545.16278,0.70468
545.38959,0.70496
545.61639,0.70504
545.8432,0.70416
